#x 	<E> 	error 	<M> 	error 	d<E>/dT 	error 	d<M>/dh 	error 	B(E) 	error 	B(M) 	derror
0.4	-1.11753 	0.00136232 	-0.00457214 	0.00591025	6.09587 	0.0973028 	56.5217 	0.665243	1.04933 	0.000775624 	2.0517 	0.0170088
0.401	-1.12228 	0.00148673 	-0.00950623 	0.0062416	6.26836 	0.104984 	58.0399 	0.66383	1.05092 	0.000905348 	2.05819 	0.0157865
0.402	-1.13456 	0.00125554 	0.00375 	0.00686184	6.59091 	0.0952466 	62.292 	0.747192	1.05201 	0.000766588 	2.00893 	0.0172048
0.403	-1.1369 	0.00162559 	0.000961304 	0.00803969	6.54156 	0.094955 	63.7153 	0.752224	1.05143 	0.000762549 	1.99364 	0.0156092
0.404	-1.14496 	0.00143792 	-0.0056488 	0.00692211	6.62142 	0.0969516 	66.3277 	0.731868	1.05142 	0.000889087 	1.95333 	0.0163506
0.405	-1.15155 	0.00156734 	-0.00589722 	0.00802282	6.74187 	0.125863 	69.2613 	0.806687	1.05183 	0.0010804 	1.90217 	0.0162169
0.406	-1.15777 	0.00142908 	-0.007099 	0.00812381	6.79367 	0.0949045 	71.719 	0.72957	1.0516 	0.000748247 	1.8767 	0.0128795
0.407	-1.16596 	0.00150066 	-0.0110876 	0.00863668	7.0586 	0.11541 	73.6917 	0.963068	1.05304 	0.000873962 	1.88914 	0.0145855
0.408	-1.17208 	0.00150726 	-0.00152893 	0.00824483	7.15749 	0.115568 	76.5297 	0.81921	1.05271 	0.000839275 	1.84078 	0.0141346
0.409	-1.17829 	0.00152477 	0.0146783 	0.00835519	7.38783 	0.10763 	78.5326 	0.803035	1.05402 	0.000743427 	1.83332 	0.0148136
0.41	-1.18618 	0.00153652 	0.0180206 	0.00837298	7.23391 	0.112449 	81.6461 	0.919741	1.05203 	0.000855249 	1.78556 	0.0126122
0.411	-1.19037 	0.00144043 	-0.010343 	0.0087322	7.48238 	0.113712 	82.9126 	0.801428	1.05385 	0.000824188 	1.79296 	0.0127972
0.412	-1.19596 	0.00147331 	-0.0170905 	0.00900785	7.47395 	0.117636 	85.2919 	0.95093	1.05292 	0.000785753 	1.76904 	0.0131252
0.413	-1.20901 	0.00151012 	0.00681519 	0.0110382	7.91535 	0.100859 	91.4864 	0.920096	1.05494 	0.000724962 	1.72336 	0.0133751
0.414	-1.21746 	0.00179236 	-0.00761108 	0.0107147	7.7291 	0.117624 	94.7385 	0.945725	1.05274 	0.000813884 	1.68136 	0.0134949
0.415	-1.22247 	0.00164201 	-9.09424e-05 	0.0121795	8.10572 	0.125462 	97.678 	1.02434	1.05486 	0.000823836 	1.67445 	0.0112597
0.416	-1.23191 	0.00157238 	-0.0257306 	0.0110037	7.7591 	0.114666 	100.42 	0.888481	1.05144 	0.00082695 	1.62538 	0.0117644
0.417	-1.24038 	0.00155644 	0.0196545 	0.0139615	8.23639 	0.126905 	104.437 	1.08203	1.05359 	0.000855627 	1.60974 	0.0104094
0.418	-1.24896 	0.00168964 	0.000727539 	0.0133472	7.90655 	0.105257 	109.414 	0.952029	1.05082 	0.000763454 	1.56727 	0.00963801
0.419	-1.25381 	0.00169672 	-0.0153577 	0.0140937	8.63467 	0.136835 	110.693 	1.0512	1.05519 	0.000932792 	1.57795 	0.0099516
0.42	-1.26246 	0.00191453 	0.015285 	0.0148098	8.36126 	0.13492 	115.156 	1.12972	1.05266 	0.000851179 	1.53224 	0.00999556
0.421	-1.27556 	0.00178324 	0.00987793 	0.0168144	8.62098 	0.134794 	121.869 	1.19185	1.05296 	0.000808712 	1.49699 	0.00933372
0.422	-1.27818 	0.0018429 	0.00828125 	0.0170833	8.64008 	0.120652 	122.753 	1.17675	1.05275 	0.000836327 	1.49182 	0.0104959
0.423	-1.29093 	0.00212047 	0.00477905 	0.0165235	8.7242 	0.122946 	128.194 	1.28264	1.05213 	0.000686717 	1.46894 	0.00996722
0.424	-1.29676 	0.00163961 	0.0289178 	0.0196685	8.63631 	0.117607 	129.097 	1.13831	1.05106 	0.00070455 	1.46453 	0.00858758
0.425	-1.30811 	0.00167636 	0.0552942 	0.0175033	8.74207 	0.114496 	135.388 	1.47136	1.05052 	0.000691723 	1.41669 	0.00825306
0.426	-1.31753 	0.00167867 	-0.00295227 	0.0216354	8.96885 	0.133391 	143.006 	1.15475	1.05129 	0.000703665 	1.3815 	0.00700912
0.427	-1.32423 	0.00165824 	-0.0212848 	0.0230292	8.70665 	0.14406 	145.178 	1.29667	1.04926 	0.000841019 	1.37619 	0.00803697
0.428	-1.33683 	0.00187406 	-0.0089917 	0.0224564	8.67116 	0.108102 	151.598 	1.24449	1.04762 	0.000635675 	1.34285 	0.00755355
0.429	-1.34131 	0.00171024 	-0.0417566 	0.0223071	9.05943 	0.111644 	151.765 	1.41872	1.0496 	0.000616196 	1.34878 	0.00645762
0.43	-1.35332 	0.0016479 	-0.0228033 	0.0274703	8.72052 	0.126981 	159.055 	1.32277	1.04654 	0.000642959 	1.31617 	0.00733727
0.431	-1.36389 	0.00187273 	-0.0550067 	0.0258554	9.04842 	0.138504 	163.52 	1.76019	1.04763 	0.000846288 	1.30102 	0.00734486
0.432	-1.36805 	0.00183592 	-0.0039563 	0.0255954	8.77583 	0.111418 	166.848 	1.35498	1.04586 	0.000689523 	1.28363 	0.00667247
0.433	-1.37613 	0.00184773 	0.0177234 	0.0282729	9.10305 	0.120943 	171.84 	1.3164	1.04673 	0.000607679 	1.26992 	0.00591777
0.434	-1.38851 	0.0017767 	-0.00361755 	0.0312574	9.08853 	0.11683 	178.113 	1.30023	1.04551 	0.000655403 	1.24912 	0.00557102
0.435	-1.39856 	0.00161622 	0.01336 	0.0305164	8.59328 	0.128106 	183.111 	1.2393	1.04257 	0.000693401 	1.22952 	0.00512767
0.436	-1.40377 	0.00160883 	0.0175677 	0.0325877	8.55339 	0.128674 	185.519 	1.25378	1.04214 	0.000624877 	1.22449 	0.00484063
0.437	-1.41418 	0.00177294 	-0.00994141 	0.0348677	8.68651 	0.129433 	190.731 	1.3692	1.04198 	0.000641931 	1.20906 	0.00565504
0.438	-1.42102 	0.00186447 	0.0125555 	0.039722	8.85223 	0.141672 	193.134 	1.59582	1.04226 	0.000651175 	1.20754 	0.00615042
0.439	-1.4297 	0.00175084 	-0.0337433 	0.0386967	8.46142 	0.139261 	197.759 	1.84336	1.03985 	0.000606097 	1.18889 	0.00487678
0.44	-1.43829 	0.00176296 	0.00598572 	0.040887	8.52084 	0.128444 	202.726 	1.38723	1.03973 	0.000542161 	1.17862 	0.00465435
0.441	-1.44818 	0.00177977 	0.00731873 	0.0413369	8.14295 	0.11859 	208.174 	1.38189	1.03726 	0.000592137 	1.16314 	0.00464822
0.442	-1.45776 	0.00183731 	-0.00401062 	0.0408219	8.07077 	0.128525 	213.801 	1.42437	1.03649 	0.000639973 	1.14635 	0.0041456
0.443	-1.46281 	0.00154219 	-0.0492438 	0.0444677	7.99927 	0.124139 	213.314 	2.31142	1.03588 	0.000548886 	1.14836 	0.00320439
0.444	-1.47561 	0.00169855 	-0.0281787 	0.046803	7.79606 	0.11267 	221.468 	1.98313	1.03435 	0.000561952 	1.13082 	0.00382346
0.445	-1.47844 	0.00176278 	0.0399805 	0.0455693	7.83191 	0.136228 	221.678 	2.23336	1.03441 	0.000561886 	1.13174 	0.0035642
0.446	-1.48583 	0.00152845 	-0.0505347 	0.0501406	7.6588 	0.127469 	226.162 	2.28824	1.03312 	0.000530907 	1.11791 	0.00337861
0.447	-1.49337 	0.00158594 	0.140113 	0.0492687	7.68758 	0.119291 	223.021 	5.28664	1.03296 	0.000532907 	1.11133 	0.00308443
0.448	-1.50346 	0.00159552 	-0.087569 	0.0557543	7.30431 	0.112387 	231.771 	4.41025	1.03103 	0.000469013 	1.10358 	0.00279576
0.449	-1.51075 	0.00151624 	-0.176765 	0.0514334	7.32681 	0.128666 	225.966 	7.46707	1.03069 	0.00052842 	1.10058 	0.0032335
0.45	-1.5191 	0.00144906 	-0.199149 	0.0549541	6.97918 	0.110596 	226.939 	9.16881	1.02903 	0.00048005 	1.08776 	0.00252211
0.451	-1.52619 	0.00174046 	-0.0267395 	0.0573385	6.90524 	0.119083 	246.125 	2.56326	1.02837 	0.000423005 	1.08435 	0.00292096
0.452	-1.53408 	0.00159364 	0.0500049 	0.0524719	6.76322 	0.104518 	248.636 	2.92411	1.02757 	0.000459953 	1.0811 	0.00249444
0.453	-1.53647 	0.00158007 	-0.189342 	0.0558503	6.77525 	0.12434 	236.174 	8.69947	1.02741 	0.000393946 	1.07849 	0.00233701
0.454	-1.54593 	0.00141783 	0.0703943 	0.0586412	6.32128 	0.0976657 	253.35 	4.44257	1.02533 	0.000379777 	1.06866 	0.00211301
0.455	-1.5512 	0.00157776 	0.127175 	0.0590674	6.35412 	0.117951 	251.371 	7.17084	1.02524 	0.000431943 	1.06562 	0.00212955
0.456	-1.55708 	0.00154246 	-0.130763 	0.058695	6.33294 	0.10963 	253.229 	6.60095	1.02502 	0.000419684 	1.06406 	0.00221217
0.457	-1.56463 	0.00149862 	0.247431 	0.0612393	6.0815 	0.101377 	239.662 	12.8513	1.02391 	0.000404297 	1.05718 	0.00172988
0.458	-1.56938 	0.001375 	0.10941 	0.0607037	6.15181 	0.109142 	261.024 	5.74876	1.02388 	0.000381907 	1.05673 	0.001954
0.459	-1.57769 	0.00138214 	-0.161184 	0.063367	5.97444 	0.0995233 	258.932 	8.74735	1.02296 	0.000385927 	1.05367 	0.00169213
0.46	-1.58136 	0.0015196 	-0.29795 	0.0628514	5.81015 	0.102967 	235.53 	14.8085	1.02228 	0.000364322 	1.05057 	0.00178773
0.461	-1.58809 	0.00144723 	0.195227 	0.0658911	5.59811 	0.0998128 	258.438 	10.5918	1.02133 	0.00035831 	1.04667 	0.00141638
0.462	-1.59352 	0.00144505 	0.209652 	0.0637225	5.58121 	0.0999571 	258.637 	10.9575	1.02108 	0.000381429 	1.04465 	0.00154148
0.463	-1.59969 	0.00118578 	-0.00988098 	0.0752386	5.47174 	0.104638 	278.868 	2.65347	1.02055 	0.000365799 	1.04111 	0.00147203
0.464	-1.60471 	0.00134453 	0.40101 	0.0588852	5.2704 	0.0886981 	216.336 	19.2785	1.01968 	0.000311632 	1.04008 	0.0013757
0.465	-1.60985 	0.00125289 	0.170164 	0.0687846	5.17367 	0.0945812 	271.642 	9.79362	1.01923 	0.000357947 	1.03682 	0.00126635
0.466	-1.6132 	0.0012193 	-0.0307843 	0.0624478	5.11295 	0.081689 	284.128 	3.53597	1.01899 	0.000319211 	1.0353 	0.00116924
0.467	-1.61906 	0.00122914 	0.120562 	0.0699168	5.15736 	0.101027 	280.474 	7.56276	1.01889 	0.000385779 	1.0366 	0.00142403
0.468	-1.62522 	0.0012478 	0.120355 	0.0670895	5.08879 	0.0898149 	283.279 	7.7832	1.01855 	0.000298073 	1.03241 	0.00118442
0.469	-1.62998 	0.00135726 	0.419161 	0.0644185	4.80045 	0.0849318 	221.011 	21.311	1.01746 	0.000291126 	1.03033 	0.0011713
0.47	-1.63384 	0.00121476 	-0.148826 	0.0694702	4.81547 	0.0818842 	283.906 	8.68915	1.01741 	0.000292738 	1.02975 	0.00125129
0.471	-1.63796 	0.00118426 	-0.0129083 	0.071472	4.75367 	0.0792552 	294.236 	3.26974	1.01708 	0.0002906 	1.02819 	0.000959354
0.472	-1.64067 	0.00115505 	-0.279528 	0.0719201	4.79399 	0.0757109 	264.303 	15.5106	1.01714 	0.00025226 	1.02647 	0.000852489
0.473	-1.64973 	0.00106014 	-0.606523 	0.050429	4.41466 	0.0725055 	152.477 	23.8381	1.01568 	0.000239754 	1.02314 	0.000762792
0.474	-1.65216 	0.00121723 	0.659826 	0.0494834	4.55659 	0.0746129 	125.733 	23.8604	1.01613 	0.000254585 	1.02456 	0.000973489
0.475	-1.65747 	0.00115923 	-0.27049 	0.0647686	4.31732 	0.074319 	272.795 	15.2027	1.01518 	0.000230804 	1.02306 	0.000761668
0.476	-1.66234 	0.00112275 	-0.405782 	0.0609845	4.32136 	0.071263 	238.174 	18.7751	1.01512 	0.000257263 	1.0216 	0.000795727
0.477	-1.66517 	0.0011285 	-0.415447 	0.0647729	4.24966 	0.0761415 	235.886 	23.0458	1.0148 	0.000241303 	1.02133 	0.000742442
0.478	-1.66943 	0.00109438 	-0.663203 	0.0486729	4.04131 	0.0670564 	130.835 	24.4909	1.01406 	0.000260439 	1.01937 	0.000590406
0.479	-1.67252 	0.00125467 	-0.274524 	0.0735548	4.13399 	0.0675627 	277.489 	16.4453	1.0143 	0.000224134 	1.01959 	0.000494874
0.48	-1.67586 	0.00115962 	0.444326 	0.0653708	3.93095 	0.075183 	230.008 	22.1043	1.01359 	0.000216268 	1.01856 	0.000904316
0.481	-1.68154 	0.00114281 	0.0387585 	0.0767705	3.89886 	0.0656706 	310.711 	3.45618	1.01339 	0.000206829 	1.01656 	0.000481176
0.482	-1.68507 	0.00117726 	0.448376 	0.0704159	3.85787 	0.0616306 	232.081 	22.7739	1.01319 	0.000227811 	1.01676 	0.000714291
0.483	-1.68796 	0.00106544 	-0.0170148 	0.0773708	3.71345 	0.0638088 	313.491 	3.18774	1.01267 	0.000214445 	1.0155 	0.000512788
0.484	-1.69233 	0.00113247 	0.293546 	0.0718291	3.64896 	0.0627885 	280.626 	16.6291	1.01237 	0.000207788 	1.0146 	0.000418791
0.485	-1.69449 	0.00112482 	0.406499 	0.0708714	3.76773 	0.0609844 	249.485 	21.78	1.01273 	0.000235579 	1.0156 	0.000604581
0.486	-1.70105 	0.00108593 	0.00672119 	0.0789518	3.53045 	0.0592628 	318.028 	3.6411	1.01188 	0.000185721 	1.01361 	0.000417233
0.487	-1.70407 	0.000960364 	0.147568 	0.0809194	3.55996 	0.059663 	310.291 	9.53093	1.0119 	0.000212842 	1.01368 	0.00050626
0.488	-1.70753 	0.000998807 	0.892719 	0.000641299	3.41149 	0.0669893 	1.20694 	0.0538998	1.01139 	0.000209319 	1.01303 	0.000442516
0.489	-1.71056 	0.000955616 	-0.894742 	0.000547647	3.3323 	0.0491914 	1.10588 	0.0495611	1.0111 	0.000168294 	1.01213 	0.000374087
0.49	-1.71519 	0.000968933 	-0.714025 	0.0476541	3.40389 	0.0596807 	119.035 	27.3737	1.01127 	0.000183511 	1.01183 	0.00040616
0.491	-1.7197 	0.00105769 	0.899199 	0.000555954	3.25877 	0.0584058 	1.01242 	0.0425554	1.01071 	0.000197456 	1.01113 	0.000374462
0.492	-1.72111 	0.00100199 	0.82754 	0.0312627	3.23255 	0.049473 	51.3527 	19.5338	1.01063 	0.000161982 	1.01066 	0.000298479
0.493	-1.72342 	0.000964799 	0.809846 	0.0340437	3.24611 	0.048765 	63.5541 	22.661	1.01066 	0.000159686 	1.01046 	0.000311714
0.494	-1.7278 	0.000883864 	0.903239 	0.000461364	3.06018 	0.0483154 	0.905509 	0.040943	1.00999 	0.00015865 	1.00988 	0.000261597
0.495	-1.73062 	0.000988079 	-0.904568 	0.000520034	3.18713 	0.0493817 	0.905605 	0.0267531	1.01039 	0.000176221 	1.01007 	0.000248868
0.496	-1.73517 	0.00094142 	0.906421 	0.000489484	3.09707 	0.0567843 	0.877093 	0.0349065	1.01003 	0.000172755 	1.00964 	0.000300348
0.497	-1.73598 	0.00098233 	-0.906655 	0.000508247	3.05635 	0.0505022 	0.89979 	0.037167	1.00988 	0.000153664 	1.00967 	0.000276984
0.498	-1.74004 	0.00103048 	0.90858 	0.000497142	3.04407 	0.0533171 	0.82239 	0.0260716	1.00979 	0.000171499 	1.00914 	0.000251169
0.499	-1.7428 	0.000956189 	-0.90936 	0.000650929	2.95389 	0.053464 	0.968269 	0.210077	1.00949 	0.000167871 	1.00932 	0.000673474
0.5	-1.7467 	0.000916081 	0.882252 	0.0194338	2.83263 	0.0521342 	21.7967 	13.1469	1.00906 	0.000149149 	1.00884 	0.00035565
